# Time (s),Altitude (m),Vertical velocity (m/s),Vertical acceleration (m/s²),Mass (g),Thrust (N)
8,0,0,-8.2852,5305.7,7.9954
8.01,0,0,-5.2713,5305.7,23.986
8.02,0,0,-2.2567,5305.2,39.977
8.03,0,0,0.75855,5304.6,55.968
8.04,3.7961e-5,0.0075939,3.7743,5304.1,71.959
8.05,3.0266e-4,0.045348,6.7907,5303.6,87.949
8.06,0.0010957,0.11327,9.8077,5303.1,103.94
8.07,0.0027189,0.21136,12.825,5302.6,119.93
8.08,0.0054738,0.33963,15.843,5302.1,135.92
8.09,0.0096624,0.49808,18.862,5301.6,151.91
8.1,0.015586,0.68673,21.881,5301.1,167.9
8.11,0.023548,0.90556,23.734,5300.6,177.71
8.12,0.03379,1.1429,23.889,5299.8,178.51
8.13,0.046414,1.3819,24.03,5298.8,179.23
8.14,0.061435,1.6222,24.173,5297.7,179.95
8.15,0.078866,1.864,24.314,5296.6,180.67
8.16,0.098722,2.1072,24.456,5295.6,181.39
8.17,0.12102,2.3518,24.598,5294.5,182.11
8.18,0.14577,2.5979,24.74,5293.4,182.83
8.19,0.17298,2.8453,24.882,5292.4,183.55
8.2,0.20268,3.0942,25.023,5291.3,184.27
8.21,0.23487,3.3445,25.165,5290.2,184.99
8.22,0.26957,3.5962,25.306,5289.2,185.7
8.23,0.3068,3.8493,25.448,5288.1,186.42
8.24,0.34657,4.1038,25.589,5287,187.14
8.25,0.38889,4.3597,25.731,5286,187.86
8.26,0.43377,4.6171,25.872,5284.9,188.58
8.27,0.48123,4.8759,26.014,5283.8,189.3
8.28,0.53129,5.1361,26.155,5282.8,190.02
8.29,0.58396,5.3977,26.297,5281.7,190.74
8.3,0.63925,5.6607,26.438,5280.6,191.46
8.31,0.69718,5.9251,26.579,5279.6,192.18
8.32,0.75776,6.191,26.721,5278.5,192.9
8.33,0.82101,6.4582,26.856,5277.4,193.59
8.34,0.88693,6.7268,26.93,5276.4,193.95
8.35,0.95555,6.9962,26.989,5275.2,194.24
8.36,1.0269,7.2661,27.049,5274.1,194.6
8.375,1.1389,7.6721,27.15,5272.7,195.13
8.3975,1.3184,8.2836,27.302,5270.6,195.94
8.4312,1.6135,9.2064,27.529,5267.4,197.14
8.4812,2.1083,10.586,27.864,5262.7,198.57
8.5312,2.6725,11.98,28.152,5257,199.95
8.5812,3.3067,13.389,28.36,5251.3,200.92
8.6312,4.0116,14.808,28.549,5245.6,201.79
8.6812,4.7878,16.237,28.737,5239.7,202.65
8.7312,5.6356,17.675,28.922,5233.9,203.52
8.7812,6.5555,19.122,28.978,5228.1,203.71
8.8312,7.5479,20.573,28.848,5222.3,202.94
8.8812,8.6126,22.016,28.713,5216.5,202.16
8.9312,9.7493,23.453,28.577,5210.7,201.38
8.9813,10.958,24.883,28.44,5204.9,200.61
9.0313,12.237,26.306,28.307,5199.1,199.87
9.0813,13.588,27.722,28.173,5193.4,199.13
9.1313,15.009,29.131,28.036,5187.6,198.4
9.1813,16.501,30.534,27.896,5181.9,197.67
9.2313,18.063,31.929,27.731,5176.2,196.82
9.2813,19.694,33.316,27.532,5170.6,195.82
9.3313,21.394,34.693,27.327,5164.9,194.81
9.3813,23.163,36.06,27.12,5159.3,193.81
9.4313,25,37.416,26.914,5153.7,192.83
9.4813,26.904,38.762,26.757,5148.2,192.13
9.5313,28.876,40.1,26.61,5142.6,191.5
9.5813,30.914,41.431,26.458,5137.1,190.86
9.6313,33.019,42.753,26.301,5131.6,190.23
9.6813,35.189,44.068,26.123,5126.2,189.5
9.7313,37.425,45.374,25.912,5120.7,188.62
9.7813,39.726,46.669,25.698,5115.3,187.74
9.8313,42.092,47.954,25.487,5109.9,186.86
9.8813,44.521,49.228,25.282,5104.5,186
9.9313,47.014,50.491,25.115,5099.1,185.33
9.9813,49.57,51.747,24.963,5093.8,184.72
10.031,52.189,52.995,24.813,5088.5,184.1
10.081,54.87,54.235,24.659,5083.2,183.48
10.131,57.612,55.468,24.489,5077.9,182.77
10.181,60.416,56.692,24.296,5072.6,181.93
10.231,63.281,57.907,24.116,5067.4,181.09
10.281,66.207,59.113,23.93,5062.2,180.25
10.331,69.192,60.31,23.737,5057,179.38
10.381,72.238,61.497,23.504,5051.8,178.29
10.431,75.342,62.672,23.269,5046.7,177.15
10.481,78.505,63.836,23.032,5041.6,176
10.531,81.725,64.988,22.788,5036.6,174.86
10.581,85.003,66.127,22.584,5031.5,173.91
10.631,88.338,67.257,22.427,5026.5,173.23
10.681,91.728,68.378,22.263,5021.5,172.56
10.731,95.175,69.491,22.096,5016.5,171.89
10.781,98.677,70.595,21.912,5011.6,171.17
10.831,102.23,71.69,21.617,5006.6,169.94
10.881,105.85,72.77,21.291,5001.8,168.57
10.931,109.51,73.834,20.966,4996.9,167.2
10.981,113.23,74.881,20.633,4992.1,165.83
11.031,117,75.912,20.321,4987.3,164.56
11.081,120.82,76.927,20.035,4982.5,163.47
11.131,124.69,77.927,19.736,4977.8,162.38
11.181,128.61,78.912,19.437,4973.2,161.29
11.231,132.58,79.882,19.142,4968.5,160.19
11.281,136.6,80.838,18.826,4963.9,159.01
11.331,140.67,81.778,18.517,4959.3,157.81
11.381,144.78,82.703,18.229,4954.8,156.6
11.431,148.94,83.614,17.95,4950.3,155.39
11.481,153.14,84.511,17.658,4945.7,154.15
11.531,157.39,85.393,17.36,4941.3,152.83
11.581,161.68,86.261,17.067,4936.9,151.5
11.631,166.01,87.114,16.78,4932.6,150.18
11.681,170.39,87.953,16.344,4928.2,148.19
11.731,174.81,88.77,14.258,4924,138.03
11.781,179.26,89.482,11.688,4920.2,125.46
11.831,183.75,90.066,9.1109,4916.8,112.89
11.881,188.27,90.521,6.5396,4913.3,100.32
11.931,192.8,90.848,4.2857,4909.9,89.326
11.981,197.35,91.062,2.5967,4907,81.103
12.031,201.9,91.191,0.92852,4904.8,72.932
12.081,206.47,91.238,-0.73035,4902.6,64.762
12.131,211.03,91.201,-2.3178,4900.5,56.914
12.181,215.58,91.086,-3.1088,4898.5,52.994
12.231,220.13,90.93,-3.6615,4896.9,50.236
12.281,224.68,90.748,-4.2028,4895.5,47.478
12.331,229.21,90.538,-4.7457,4894.1,44.72
12.381,233.73,90.301,-5.2497,4892.7,42.152
12.431,238.24,90.039,-5.6776,4891.4,39.921
12.481,242.73,89.756,-6.0972,4890.3,37.697
12.531,247.21,89.452,-6.5126,4889.2,35.472
12.581,251.68,89.128,-6.9281,4888.1,33.272
12.631,256.12,88.782,-7.2855,4887,31.371
12.681,260.55,88.418,-7.6344,4886.1,29.557
12.731,264.97,88.037,-7.9872,4885.3,27.743
12.781,269.36,87.638,-8.3185,4884.5,25.93
12.831,273.73,87.224,-8.6437,4883.6,24.106
12.881,278.08,86.792,-8.9736,4882.9,22.262
12.931,282.41,86.345,-9.3113,4882.3,20.418
12.981,286.71,85.88,-9.6392,4881.7,18.575
13.031,291,85.4,-9.9698,4881.1,16.736
13.081,295.25,84.902,-10.283,4880.6,14.958
13.131,299.49,84.389,-10.586,4880.1,13.199
13.181,303.69,83.862,-10.883,4879.8,11.439
13.231,307.87,83.319,-11.192,4879.4,9.6795
13.281,312.02,82.76,-11.427,4879.1,8.2635
13.331,316.15,82.191,-11.527,4878.8,7.4546
13.381,320.24,81.616,-11.63,4878.6,6.6572
13.431,324.31,81.035,-11.755,4878.4,5.8599
13.481,328.35,80.448,-11.888,4878.2,5.0471
13.531,332.35,79.855,-12.069,4878,4.0244
13.581,336.33,79.252,-12.255,4877.9,2.9353
13.631,340.28,78.641,-12.424,4877.8,1.8461
13.681,344.19,78.021,-12.599,4877.8,0.75697
13.731,348.08,77.392,-12.703,4877.7,0.020708
13.781,351.93,76.758,-12.67,4877.6,0
13.831,355.76,76.125,-12.626,4877.6,0
13.881,359.55,75.495,-12.582,4877.6,0
13.931,363.31,74.867,-12.538,4877.6,0
13.981,367.03,74.241,-12.488,4877.6,0
14.031,370.73,73.618,-12.432,4877.6,0
14.081,374.4,72.998,-12.368,4877.6,0
14.131,378.03,72.381,-12.318,4877.6,0
14.181,381.63,71.767,-12.264,4877.6,0
14.231,385.21,71.155,-12.221,4877.6,0
14.281,388.75,70.545,-12.181,4877.6,0
14.331,392.26,69.937,-12.13,4877.6,0
14.381,395.74,69.332,-12.075,4877.6,0
14.431,399.19,68.729,-12.034,4877.6,0
14.481,402.62,68.128,-11.995,4877.6,0
14.531,406.01,67.529,-11.969,4877.6,0
14.581,409.37,66.931,-11.942,4877.6,0
14.631,412.7,66.335,-11.898,4877.6,0
14.681,416,65.742,-11.858,4877.6,0
14.731,419.27,65.149,-11.829,4877.6,0
14.781,422.52,64.559,-11.796,4877.6,0
14.831,425.73,63.97,-11.759,4877.6,0
14.881,428.91,63.383,-11.722,4877.6,0
14.931,432.07,62.798,-11.687,4877.6,0
14.981,435.19,62.214,-11.639,4877.6,0
15.031,438.29,61.633,-11.607,4877.6,0
15.081,441.36,61.054,-11.576,4877.6,0
15.131,444.4,60.476,-11.549,4877.6,0
15.181,447.4,59.899,-11.525,4877.6,0
15.231,450.39,59.323,-11.502,4877.6,0
15.281,453.34,58.749,-11.47,4877.6,0
15.331,456.26,58.176,-11.434,4877.6,0
15.381,459.15,57.605,-11.398,4877.6,0
15.431,462.02,57.036,-11.367,4877.6,0
15.481,464.86,56.469,-11.332,4877.6,0
15.531,467.67,55.903,-11.292,4877.6,0
15.581,470.45,55.339,-11.256,4877.6,0
15.631,473.2,54.778,-11.212,4877.6,0
15.681,475.93,54.218,-11.167,4877.6,0
15.731,478.62,53.661,-11.14,4877.6,0
15.781,481.29,53.104,-11.122,4877.6,0
15.831,483.93,52.549,-11.086,4877.6,0
15.881,486.55,51.995,-11.057,4877.6,0
15.931,489.13,51.443,-11.033,4877.6,0
15.981,491.69,50.892,-11.019,4877.6,0
16.031,494.22,50.341,-11,4877.6,0
16.081,496.73,49.792,-10.973,4877.6,0
16.131,499.2,49.244,-10.943,4877.6,0
16.181,501.65,48.698,-10.9,4877.6,0
16.231,504.07,48.154,-10.865,4877.6,0
16.281,506.47,47.611,-10.845,4877.6,0
16.331,508.83,47.069,-10.826,4877.6,0
16.381,511.17,46.529,-10.801,4877.6,0
16.431,513.49,45.989,-10.776,4877.6,0
16.481,515.77,45.451,-10.757,4877.6,0
16.531,518.03,44.913,-10.74,4877.6,0
16.581,520.26,44.377,-10.718,4877.6,0
16.631,522.47,43.842,-10.702,4877.6,0
16.681,524.65,43.307,-10.691,4877.6,0
16.731,526.8,42.773,-10.669,4877.6,0
16.781,528.92,42.24,-10.641,4877.6,0
16.831,531.02,41.708,-10.627,4877.6,0
16.881,533.1,41.177,-10.618,4877.6,0
16.931,535.14,40.646,-10.606,4877.6,0
16.981,537.16,40.117,-10.58,4877.6,0
17.031,539.15,39.588,-10.56,4877.6,0
17.081,541.12,39.061,-10.536,4877.6,0
17.131,543.06,38.534,-10.531,4877.6,0
17.181,544.97,38.008,-10.518,4877.6,0
17.231,546.86,37.483,-10.486,4877.6,0
17.281,548.72,36.959,-10.463,4877.6,0
17.331,550.56,36.436,-10.452,4877.6,0
17.381,552.36,35.914,-10.436,4877.6,0
17.431,554.15,35.393,-10.419,4877.6,0
17.481,555.9,34.872,-10.396,4877.6,0
17.531,557.63,34.353,-10.365,4877.6,0
17.581,559.34,33.836,-10.338,4877.6,0
17.631,561.02,33.319,-10.325,4877.6,0
17.681,562.67,32.803,-10.305,4877.6,0
17.731,564.3,32.289,-10.284,4877.6,0
17.781,565.9,31.775,-10.276,4877.6,0
17.831,567.48,31.261,-10.251,4877.6,0
17.881,569.03,30.75,-10.224,4877.6,0
17.931,570.55,30.239,-10.203,4877.6,0
17.981,572.05,29.729,-10.179,4877.6,0
18.031,573.52,29.221,-10.166,4877.6,0
18.081,574.97,28.713,-10.155,4877.6,0
18.131,576.39,28.205,-10.136,4877.6,0
18.181,577.79,27.699,-10.12,4877.6,0
18.231,579.16,27.193,-10.112,4877.6,0
18.281,580.51,26.688,-10.1,4877.6,0
18.331,581.83,26.183,-10.093,4877.6,0
18.381,583.13,25.679,-10.084,4877.6,0
18.431,584.4,25.175,-10.071,4877.6,0
18.481,585.65,24.672,-10.055,4877.6,0
18.531,586.87,24.169,-10.045,4877.6,0
18.581,588.06,23.667,-10.033,4877.6,0
18.631,589.24,23.166,-10.023,4877.6,0
18.681,590.38,22.665,-10.008,4877.6,0
18.731,591.5,22.165,-10.001,4877.6,0
18.781,592.6,21.665,-9.9897,4877.6,0
18.831,593.67,21.166,-9.9776,4877.6,0
18.881,594.71,20.667,-9.9669,4877.6,0
18.931,595.73,20.169,-9.9568,4877.6,0
18.981,596.73,19.672,-9.9524,4877.6,0
19.031,597.7,19.174,-9.9469,4877.6,0
19.081,598.65,18.677,-9.9349,4877.6,0
19.131,599.57,18.18,-9.9264,4877.6,0
19.181,600.47,17.684,-9.9206,4877.6,0
19.231,601.34,17.189,-9.9018,4877.6,0
19.281,602.19,16.694,-9.8832,4877.6,0
19.331,603.01,16.2,-9.8701,4877.6,0
19.381,603.81,15.707,-9.8551,4877.6,0
19.431,604.58,15.215,-9.8355,4877.6,0
19.481,605.33,14.724,-9.8123,4877.6,0
19.531,606.05,14.234,-9.7836,4877.6,0
19.581,606.75,13.745,-9.7659,4877.6,0
19.631,607.43,13.257,-9.749,4877.6,0
19.681,608.08,12.77,-9.7432,4877.6,0
19.731,608.7,12.283,-9.7435,4877.6,0
19.781,609.3,11.796,-9.7384,4877.6,0
19.831,609.88,11.309,-9.7326,4877.6,0
19.881,610.44,10.822,-9.7299,4877.6,0
19.931,610.96,10.336,-9.7231,4877.6,0
19.981,611.47,9.8502,-9.7076,4877.6,0
20.031,611.95,9.3654,-9.6834,4877.6,0
20.081,612.41,8.8817,-9.6667,4877.6,0
20.131,612.84,8.3988,-9.6433,4877.6,0
20.181,613.25,7.9173,-9.6255,4877.6,0
20.231,613.63,7.4364,-9.6041,4877.6,0
20.281,613.99,6.9567,-9.5878,4877.6,0
20.331,614.32,6.4776,-9.5748,4877.6,0
20.381,614.64,5.9996,-9.5393,4877.6,0
20.431,614.92,5.5237,-9.4978,4877.6,0
20.481,615.19,5.0497,-9.4668,4877.6,0
20.531,615.43,4.5768,-9.4472,4877.6,0
20.581,615.65,4.105,-9.4271,4877.6,0
20.631,615.84,3.6342,-9.4023,4877.6,0
20.681,616.01,3.1648,-9.3743,4877.6,0
20.731,616.16,2.6967,-9.351,4877.6,0
20.781,616.28,2.2298,-9.3247,4877.6,0
20.831,616.38,1.7643,-9.295,4877.6,0
20.881,616.46,1.3003,-9.2666,4877.6,0
20.931,616.51,0.8377,-9.2339,4877.6,0
20.981,616.54,0.37722,-9.1772,4877.6,0
21.031,616.55,-0.079897,-9.1086,4877.6,0
21.081,616.53,-0.55141,-9.4834,4877.6,0
21.131,616.49,-1.0249,-9.4555,4877.6,0
21.181,616.43,-1.497,-9.4326,4877.6,0
21.231,616.34,-1.9679,-9.3991,4877.6,0
21.281,616.23,-2.437,-9.3712,4877.6,0
21.331,616.1,-2.9049,-9.3356,4877.6,0
21.381,615.94,-3.3704,-9.2837,4877.6,0
21.431,615.76,-3.8332,-9.2257,4877.6,0
21.481,615.56,-4.2929,-9.1658,4877.6,0
21.531,615.33,-4.7495,-9.0929,4877.6,0
21.581,615.08,-5.2022,-9.0172,4877.6,0
21.631,614.81,-5.6511,-8.9343,4877.6,0
21.681,614.52,-6.0955,-8.844,4877.6,0
21.731,614.2,-6.5353,-8.7445,4877.6,0
21.781,613.87,-6.9698,-8.6335,4877.6,0
21.831,613.51,-7.3986,-8.5192,4877.6,0
21.881,613.13,-7.8216,-8.3975,4877.6,0
21.931,612.72,-8.2383,-8.27,4877.6,0
21.981,612.3,-8.6489,-8.1636,4877.6,0
22.031,611.86,-9.0543,-8.0448,4877.6,0
22.081,611.4,-9.4529,-7.893,4877.6,0
22.131,610.91,-9.8435,-7.7291,4877.6,0
22.181,610.41,-10.226,-7.5493,4877.6,0
22.231,609.89,-10.598,-7.3697,4877.6,0
22.281,609.35,-10.963,-7.2014,4877.6,0
22.331,608.8,-11.319,-7.0413,4877.6,0
22.381,608.22,-11.667,-6.9055,4877.6,0
22.431,607.63,-12.009,-6.7402,4877.6,0
22.481,607.02,-12.342,-6.5986,4877.6,0
22.531,606.4,-12.668,-6.456,4877.6,0
22.581,605.75,-12.988,-6.3434,4877.6,0
22.631,605.1,-13.303,-6.2511,4877.6,0
22.681,604.42,-13.613,-6.165,4877.6,0
22.731,603.74,-13.92,-6.0817,4877.6,0
22.781,603.03,-14.221,-5.9838,4877.6,0
22.831,602.31,-14.52,-6.0059,4877.6,0
22.881,601.58,-14.822,-6.072,4877.6,0
22.931,600.83,-15.127,-6.1315,4877.6,0
22.981,600.07,-15.436,-6.2599,4877.6,0
23.031,599.29,-15.753,-6.3868,4877.6,0
23.081,598.49,-16.075,-6.4722,4877.6,0
23.131,597.68,-16.402,-6.6772,4877.6,0
23.181,596.85,-16.743,-6.9513,4877.6,0
23.231,596,-17.097,-7.1716,4877.6,0
23.281,595.14,-17.461,-7.4128,4877.6,0
23.331,594.26,-17.838,-7.6502,4877.6,0
23.381,593.36,-18.226,-7.8856,4877.6,0
23.431,592.44,-18.626,-8.1151,4877.6,0
23.481,591.49,-19.037,-8.3033,4877.6,0
23.531,590.53,-19.457,-8.4843,4877.6,0
23.581,589.55,-19.885,-8.6264,4877.6,0
23.631,588.54,-20.319,-8.7517,4877.6,0
23.681,587.52,-20.76,-8.8666,4877.6,0
23.731,586.47,-21.205,-8.9638,4877.6,0
23.781,585.4,-21.656,-9.0465,4877.6,0
23.831,584.3,-22.11,-9.1192,4877.6,0
23.881,583.18,-22.567,-9.1835,4877.6,0
23.931,582.04,-23.028,-9.2352,4877.6,0
23.981,580.88,-23.491,-9.2702,4877.6,0
24.031,579.7,-23.955,-9.2936,4877.6,0
24.079,578.54,-24.399,-9.3057,4877.6,0
24.124,577.42,-24.821,-9.3068,4877.6,0
24.168,576.33,-25.227,-9.3,4877.6,0
24.21,575.27,-25.616,-9.286,4877.6,0
24.25,574.23,-25.99,-9.2617,4877.6,0
24.29,573.2,-26.354,-9.2268,4877.6,0
24.328,572.17,-26.71,-9.1811,4877.6,0
24.367,571.14,-27.063,-9.1245,4877.6,0
24.405,570.09,-27.412,-9.0561,4877.6,0
24.444,569.03,-27.76,-8.9704,4877.6,0
24.483,567.93,-28.108,-8.857,4877.6,0
24.523,566.79,-28.465,-8.7193,4877.6,0
24.566,565.57,-28.83,-8.5488,4877.6,0
24.61,564.28,-29.208,-8.3248,4877.6,0
24.659,562.85,-29.606,-8.031,4877.6,0
24.709,561.36,-29.999,-7.669,4877.6,0
24.759,559.85,-30.371,-7.2168,4877.6,0
24.809,558.32,-30.718,-6.6635,4877.6,0
24.859,556.77,-31.036,-6.0212,4877.6,0
24.909,555.22,-31.318,-5.2451,4877.6,0
24.959,553.64,-31.56,-4.4076,4877.6,0
25.009,552.06,-31.757,-3.4599,4877.6,0
25.059,550.47,-31.907,-2.5515,4877.6,0
25.109,548.87,-32.012,-1.6439,4877.6,0
25.159,547.27,-32.072,-0.78897,4877.6,0
25.209,545.66,-32.091,0.058202,4877.6,0
25.259,544.06,-32.066,0.90114,4877.6,0
25.309,542.46,-32.003,1.6186,4877.6,0
25.355,540.98,-31.915,2.1699,4877.6,0
25.399,539.58,-31.809,2.6147,4877.6,0
25.442,538.23,-31.691,2.9423,4877.6,0
25.483,536.91,-31.563,3.1721,4877.6,0
25.525,535.61,-31.429,3.3002,4877.6,0
25.566,534.3,-31.29,3.3469,4877.6,0
25.609,532.98,-31.149,3.3194,4877.6,0
25.652,531.63,-31.007,3.1857,4877.6,0
25.697,530.23,-30.867,2.9963,4877.6,0
25.745,528.77,-30.732,2.6777,4877.6,0
25.795,527.23,-30.605,2.4067,4877.6,0
25.845,525.71,-30.495,1.963,4877.6,0
25.895,524.19,-30.408,1.5128,4877.6,0
25.945,522.67,-30.346,0.98714,4877.6,0
25.995,521.15,-30.31,0.44192,4877.6,0
26.045,519.63,-30.3,-0.063236,4877.6,0
26.095,518.12,-30.316,-0.55147,4877.6,0
26.145,516.6,-30.356,-1.058,4877.6,0
26.195,515.08,-30.421,-1.5072,4877.6,0
26.245,513.56,-30.506,-1.8827,4877.6,0
26.295,512.03,-30.608,-2.2072,4877.6,0
26.345,510.5,-30.725,-2.4811,4877.6,0
26.395,508.96,-30.855,-2.704,4877.6,0
26.445,507.41,-30.995,-2.8819,4877.6,0
26.495,505.86,-31.142,-2.9723,4877.6,0
26.545,504.3,-31.292,-3.0217,4877.6,0
26.595,502.73,-31.442,-2.9739,4877.6,0
26.645,501.16,-31.589,-2.8927,4877.6,0
26.695,499.57,-31.73,-2.7245,4877.6,0
26.745,497.98,-31.861,-2.5233,4877.6,0
26.795,496.39,-31.981,-2.2682,4877.6,0
26.845,494.78,-32.086,-1.9249,4877.6,0
26.895,493.18,-32.173,-1.5469,4877.6,0
26.945,491.57,-32.24,-1.0915,4877.6,0
26.995,489.95,-32.281,-0.53968,4877.6,0
27.045,488.34,-32.293,0.070847,4877.6,0
27.095,486.73,-32.274,0.66648,4877.6,0
27.145,485.11,-32.225,1.2996,4877.6,0
27.195,483.5,-32.144,1.9649,4877.6,0
27.245,481.9,-32.029,2.6332,4877.6,0
27.295,480.3,-31.881,3.2817,4877.6,0
27.345,478.71,-31.701,3.8813,4877.6,0
27.395,477.13,-31.494,4.39,4877.6,0
27.445,475.56,-31.262,4.8796,4877.6,0
27.495,474.01,-31.007,5.3058,4877.6,0
27.545,472.46,-30.734,5.6127,4877.6,0
27.595,470.93,-30.447,5.8362,4877.6,0
27.645,469.42,-30.152,5.9616,4877.6,0
27.695,467.92,-29.853,6.0006,4877.6,0
27.745,466.43,-29.553,5.9577,4877.6,0
27.795,464.96,-29.258,5.8255,4877.6,0
27.845,463.51,-28.971,5.6527,4877.6,0
27.895,462.07,-28.695,5.3937,4877.6,0
27.945,460.64,-28.433,5.0844,4877.6,0
27.995,459.22,-28.187,4.752,4877.6,0
28.045,457.82,-27.958,4.4077,4877.6,0
28.095,456.43,-27.746,4.0558,4877.6,0
28.145,455.04,-27.552,3.6811,4877.6,0
28.195,453.67,-27.378,3.3004,4877.6,0
28.245,452.31,-27.222,2.9352,4877.6,0
28.295,450.95,-27.084,2.605,4877.6,0
28.345,449.6,-26.961,2.2966,4877.6,0
28.395,448.25,-26.853,2.0288,4877.6,0
28.445,446.91,-26.758,1.8047,4877.6,0
28.495,445.58,-26.672,1.6158,4877.6,0
28.545,444.24,-26.595,1.4802,4877.6,0
28.595,442.92,-26.523,1.3975,4877.6,0
28.645,441.59,-26.455,1.365,4877.6,0
28.695,440.27,-26.386,1.3866,4877.6,0
28.745,438.95,-26.315,1.4455,4877.6,0
28.795,437.64,-26.241,1.5561,4877.6,0
28.845,436.33,-26.159,1.7096,4877.6,0
28.895,435.02,-26.069,1.9021,4877.6,0
28.945,433.72,-25.968,2.1338,4877.6,0
28.995,432.43,-25.855,2.3936,4877.6,0
29.045,431.14,-25.729,2.6661,4877.6,0
29.095,429.85,-25.588,2.9538,4877.6,0
29.145,428.58,-25.433,3.2471,4877.6,0
29.195,427.31,-25.264,3.5389,4877.6,0
29.245,426.05,-25.079,3.8227,4877.6,0
29.295,424.8,-24.882,4.0882,4877.6,0
29.345,423.56,-24.671,4.3332,4877.6,0
29.395,422.34,-24.449,4.5441,4877.6,0
29.445,421.12,-24.217,4.7143,4877.6,0
29.495,419.91,-23.978,4.8576,4877.6,0
29.545,418.72,-23.732,4.95,4877.6,0
29.595,417.54,-23.483,5.0018,4877.6,0
29.645,416.37,-23.233,5.0209,4877.6,0
29.695,415.22,-22.982,4.9922,4877.6,0
29.745,414.07,-22.734,4.9284,4877.6,0
29.795,412.94,-22.49,4.8096,4877.6,0
29.845,411.83,-22.253,4.6658,4877.6,0
29.895,410.72,-22.024,4.502,4877.6,0
29.945,409.62,-21.803,4.321,4877.6,0
29.995,408.54,-21.592,4.1219,4877.6,0
30.045,407.46,-21.392,3.8839,4877.6,0
30.095,406.4,-21.204,3.6539,4877.6,0
30.145,405.34,-21.027,3.4215,4877.6,0
30.195,404.3,-20.862,3.1834,4877.6,0
30.245,403.26,-20.708,2.9601,4877.6,0
30.295,402.23,-20.566,2.7339,4877.6,0
30.345,401.2,-20.434,2.5299,4877.6,0
30.395,400.18,-20.312,2.3556,4877.6,0
30.445,399.17,-20.199,2.1565,4877.6,0
30.495,398.16,-20.096,1.9959,4877.6,0
30.545,397.16,-20,1.8461,4877.6,0
30.595,396.16,-19.911,1.7265,4877.6,0
30.645,395.17,-19.827,1.6139,4877.6,0
30.695,394.18,-19.748,1.5583,4877.6,0
30.745,393.19,-19.671,1.5239,4877.6,0
30.795,392.21,-19.596,1.4936,4877.6,0
30.845,391.23,-19.521,1.491,4877.6,0
30.895,390.26,-19.446,1.4964,4877.6,0
30.945,389.29,-19.371,1.5138,4877.6,0
30.995,388.32,-19.294,1.5765,4877.6,0
31.045,387.36,-19.213,1.6556,4877.6,0
31.095,386.4,-19.128,1.7492,4877.6,0
31.145,385.45,-19.039,1.8395,4877.6,0
31.195,384.5,-18.944,1.9511,4877.6,0
31.245,383.55,-18.844,2.0301,4877.6,0
31.295,382.61,-18.74,2.1557,4877.6,0
31.345,381.68,-18.63,2.25,4877.6,0
31.395,380.75,-18.515,2.3494,4877.6,0
31.445,379.83,-18.394,2.459,4877.6,0
31.495,378.91,-18.27,2.5271,4877.6,0
31.545,378,-18.142,2.5745,4877.6,0
31.595,377.1,-18.012,2.6167,4877.6,0
31.645,376.2,-17.88,2.6641,4877.6,0
31.695,375.31,-17.747,2.6585,4877.6,0
31.745,374.42,-17.614,2.6571,4877.6,0
31.795,373.55,-17.481,2.6378,4877.6,0
